Frequency	Gain	Expected
1.04	-0.087296108	-0.008962052
1.99	-0.219907686	-0.009800448
5.03	-0.219907686	-0.016010803
10.48	-0.197664679	-0.040516602
20.05	-0.309453733	-0.124096507
49.96	-0.775633768	-0.677280169
104.3	-2.383728154	-2.34212695
200.1	-5.264828695	-5.390978099
298.7	-7.551741958	-7.747457646
499.2	-10.51626357	-10.62099617
1044	-13.26393469	-13.31753143
2003	-14.56926932	-14.26401267
4980	-14.80725379	-14.6124468
10436	-14.80725379	-14.66704818
20024	-14.80725379	-14.67887132